   2.0000000e+01   2.1800000e+02   1.4764823e+01
   2.0100000e+01   3.1200000e+02   1.7663522e+01
   2.0200000e+01   4.1900000e+02   2.0469489e+01
   2.0300000e+01   4.8500000e+02   2.2022716e+01
   2.0400000e+01   5.0800000e+02   2.2538855e+01
   2.0500000e+01   4.4200000e+02   2.1023796e+01
   2.0600000e+01   3.3100000e+02   1.8193405e+01
   2.0700000e+01   2.6500000e+02   1.6278821e+01
   2.0800000e+01   1.8200000e+02   1.3490738e+01
   2.0900000e+01   1.9300000e+02   1.3892444e+01
   2.1000000e+01   1.9000000e+02   1.3784049e+01
   2.1100000e+01   2.2000000e+02   1.4832397e+01
   2.1200000e+01   1.9900000e+02   1.4106736e+01
   2.1300000e+01   2.0300000e+02   1.4247807e+01
   2.1400000e+01   2.0800000e+02   1.4422205e+01
   2.1500000e+01   1.7700000e+02   1.3304135e+01
   2.1600000e+01   1.9900000e+02   1.4106736e+01
   2.1700000e+01   1.9600000e+02   1.4000000e+01
   2.1800000e+01   2.0100000e+02   1.4177447e+01
   2.1900000e+01   1.8400000e+02   1.3564660e+01
   2.2000000e+01   1.7200000e+02   1.3114877e+01
   2.2100000e+01   2.1900000e+02   1.4798649e+01
   2.2200000e+01   2.1200000e+02   1.4560220e+01
   2.2300000e+01   2.0100000e+02   1.4177447e+01
   2.2400000e+01   2.0100000e+02   1.4177447e+01
   2.2500000e+01   1.9700000e+02   1.4035669e+01
   2.2600000e+01   2.1100000e+02   1.4525839e+01
   2.2700000e+01   2.1200000e+02   1.4560220e+01
   2.2800000e+01   1.9600000e+02   1.4000000e+01
   2.2900000e+01   2.1000000e+02   1.4491377e+01
   2.3000000e+01   1.8800000e+02   1.3711309e+01
   2.3100000e+01   1.9200000e+02   1.3856406e+01
   2.3200000e+01   1.8400000e+02   1.3564660e+01
   2.3300000e+01   1.8400000e+02   1.3564660e+01
   2.3400000e+01   1.8200000e+02   1.3490738e+01
   2.3500000e+01   1.8100000e+02   1.3453624e+01
   2.3600000e+01   1.9900000e+02   1.4106736e+01
   2.3700000e+01   1.7400000e+02   1.3190906e+01
   2.3800000e+01   1.9500000e+02   1.3964240e+01
   2.3900000e+01   1.8800000e+02   1.3711309e+01
   2.4000000e+01   1.8800000e+02   1.3711309e+01
   2.4100000e+01   2.0700000e+02   1.4387495e+01
   2.4200000e+01   1.8700000e+02   1.3674794e+01
   2.4300000e+01   1.8000000e+02   1.3416408e+01
   2.4400000e+01   1.9400000e+02   1.3928388e+01
   2.4500000e+01   1.9000000e+02   1.3784049e+01
   2.4600000e+01   1.9800000e+02   1.4071247e+01
   2.4700000e+01   1.9900000e+02   1.4106736e+01
   2.4800000e+01   1.8400000e+02   1.3564660e+01
   2.4900000e+01   2.0500000e+02   1.4317821e+01
   2.5000000e+01   2.0600000e+02   1.4352700e+01
   2.5100000e+01   1.9000000e+02   1.3784049e+01
   2.5200000e+01   2.0700000e+02   1.4387495e+01
   2.5300000e+01   1.9300000e+02   1.3892444e+01
   2.5400000e+01   2.0800000e+02   1.4422205e+01
   2.5500000e+01   2.0000000e+02   1.4142136e+01
   2.5600000e+01   1.8100000e+02   1.3453624e+01
   2.5700000e+01   2.2000000e+02   1.4832397e+01
   2.5800000e+01   1.8800000e+02   1.3711309e+01
   2.5900000e+01   2.1000000e+02   1.4491377e+01
   2.6000000e+01   1.8700000e+02   1.3674794e+01
   2.6100000e+01   1.6300000e+02   1.2767145e+01
   2.6200000e+01   1.8800000e+02   1.3711309e+01
   2.6300000e+01   2.1600000e+02   1.4696938e+01
   2.6400000e+01   2.0100000e+02   1.4177447e+01
   2.6500000e+01   1.9500000e+02   1.3964240e+01
   2.6600000e+01   1.7900000e+02   1.3379088e+01
   2.6700000e+01   2.0100000e+02   1.4177447e+01
   2.6800000e+01   1.7100000e+02   1.3076697e+01
   2.6900000e+01   2.0500000e+02   1.4317821e+01
   2.7000000e+01   1.8900000e+02   1.3747727e+01
   2.7100000e+01   1.9000000e+02   1.3784049e+01
   2.7200000e+01   1.7900000e+02   1.3379088e+01
   2.7300000e+01   2.0500000e+02   1.4317821e+01
   2.7400000e+01   2.1500000e+02   1.4662878e+01
   2.7500000e+01   1.8400000e+02   1.3564660e+01
   2.7600000e+01   1.8600000e+02   1.3638182e+01
   2.7700000e+01   2.0100000e+02   1.4177447e+01
   2.7800000e+01   1.9800000e+02   1.4071247e+01
   2.7900000e+01   2.1700000e+02   1.4730920e+01
   2.8000000e+01   2.0200000e+02   1.4212670e+01
   2.8100000e+01   2.0200000e+02   1.4212670e+01
   2.8200000e+01   1.8200000e+02   1.3490738e+01
   2.8300000e+01   2.1900000e+02   1.4798649e+01
   2.8400000e+01   2.2400000e+02   1.4966630e+01
   2.8500000e+01   2.4300000e+02   1.5588457e+01
   2.8600000e+01   3.2600000e+02   1.8055470e+01
   2.8700000e+01   5.6400000e+02   2.3748684e+01
   2.8800000e+01   1.0420000e+03   3.2280025e+01
   2.8900000e+01   1.5440000e+03   3.9293765e+01
   2.9000000e+01   1.6410000e+03   4.0509258e+01
   2.9100000e+01   1.3250000e+03   3.6400549e+01
   2.9200000e+01   8.7100000e+02   2.9512709e+01
   2.9300000e+01   4.7800000e+02   2.1863211e+01
   2.9400000e+01   2.5300000e+02   1.5905974e+01
   2.9500000e+01   2.2800000e+02   1.5099669e+01
   2.9600000e+01   2.4000000e+02   1.5491933e+01
   2.9700000e+01   2.2800000e+02   1.5099669e+01
   2.9800000e+01   1.9700000e+02   1.4035669e+01
   2.9900000e+01   2.1700000e+02   1.4730920e+01
   3.0000000e+01   2.2100000e+02   1.4866069e+01
   3.0100000e+01   1.8300000e+02   1.3527749e+01
   3.0200000e+01   1.7600000e+02   1.3266499e+01
   3.0300000e+01   1.8800000e+02   1.3711309e+01
   3.0400000e+01   2.2500000e+02   1.5000000e+01
   3.0500000e+01   1.9400000e+02   1.3928388e+01
   3.0600000e+01   2.0300000e+02   1.4247807e+01
   3.0700000e+01   2.1200000e+02   1.4560220e+01
   3.0800000e+01   1.9300000e+02   1.3892444e+01
   3.0900000e+01   2.1000000e+02   1.4491377e+01
   3.1000000e+01   2.0800000e+02   1.4422205e+01
   3.1100000e+01   1.7400000e+02   1.3190906e+01
   3.1200000e+01   1.7900000e+02   1.3379088e+01
   3.1300000e+01   2.0400000e+02   1.4282857e+01
   3.1400000e+01   1.9800000e+02   1.4071247e+01
   3.1500000e+01   1.8300000e+02   1.3527749e+01
   3.1600000e+01   1.9000000e+02   1.3784049e+01
   3.1700000e+01   1.9400000e+02   1.3928388e+01
   3.1800000e+01   1.9000000e+02   1.3784049e+01
   3.1900000e+01   1.9700000e+02   1.4035669e+01
   3.2000000e+01   2.0600000e+02   1.4352700e+01
   3.2100000e+01   1.8300000e+02   1.3527749e+01
   3.2200000e+01   1.8600000e+02   1.3638182e+01
   3.2300000e+01   1.9300000e+02   1.3892444e+01
   3.2400000e+01   1.8300000e+02   1.3527749e+01
   3.2500000e+01   2.1900000e+02   1.4798649e+01
   3.2600000e+01   2.2600000e+02   1.5033296e+01
   3.2700000e+01   1.9400000e+02   1.3928388e+01
   3.2800000e+01   1.9100000e+02   1.3820275e+01
   3.2900000e+01   1.8000000e+02   1.3416408e+01
   3.3000000e+01   1.8600000e+02   1.3638182e+01
   3.3100000e+01   2.0200000e+02   1.4212670e+01
   3.3200000e+01   1.9300000e+02   1.3892444e+01
   3.3300000e+01   1.8900000e+02   1.3747727e+01
   3.3400000e+01   2.0500000e+02   1.4317821e+01
   3.3500000e+01   2.0100000e+02   1.4177447e+01
   3.3600000e+01   1.9500000e+02   1.3964240e+01
   3.3700000e+01   2.1300000e+02   1.4594520e+01
   3.3800000e+01   1.9400000e+02   1.3928388e+01
   3.3900000e+01   2.1100000e+02   1.4525839e+01
   3.4000000e+01   2.2500000e+02   1.5000000e+01
   3.4100000e+01   2.2400000e+02   1.4966630e+01
   3.4200000e+01   2.5800000e+02   1.6062378e+01
   3.4300000e+01   2.2600000e+02   1.5033296e+01
   3.4400000e+01   1.9600000e+02   1.4000000e+01
   3.4500000e+01   1.9700000e+02   1.4035669e+01
   3.4600000e+01   2.0200000e+02   1.4212670e+01
   3.4700000e+01   2.0600000e+02   1.4352700e+01
   3.4800000e+01   1.9200000e+02   1.3856406e+01
   3.4900000e+01   2.0500000e+02   1.4317821e+01
   3.5000000e+01   2.2500000e+02   1.5000000e+01
   3.5100000e+01   2.1300000e+02   1.4594520e+01
   3.5200000e+01   2.7600000e+02   1.6613248e+01
   3.5300000e+01   4.2300000e+02   2.0566964e+01
   3.5400000e+01   7.0800000e+02   2.6608269e+01
   3.5500000e+01   1.2980000e+03   3.6027767e+01
   3.5600000e+01   1.8760000e+03   4.3312816e+01
   3.5700000e+01   2.0840000e+03   4.5650849e+01
   3.5800000e+01   1.9130000e+03   4.3737855e+01
   3.5900000e+01   1.2990000e+03   3.6041643e+01
   3.6000000e+01   7.0100000e+02   2.6476405e+01
   3.6100000e+01   3.6400000e+02   1.9078784e+01
   3.6200000e+01   2.2300000e+02   1.4933185e+01
   3.6300000e+01   2.1300000e+02   1.4594520e+01
   3.6400000e+01   1.9600000e+02   1.4000000e+01
   3.6500000e+01   2.1000000e+02   1.4491377e+01
   3.6600000e+01   2.2400000e+02   1.4966630e+01
   3.6700000e+01   2.2400000e+02   1.4966630e+01
   3.6800000e+01   2.2200000e+02   1.4899664e+01
   3.6900000e+01   2.2600000e+02   1.5033296e+01
   3.7000000e+01   1.9700000e+02   1.4035669e+01
   3.7100000e+01   1.9800000e+02   1.4071247e+01
   3.7200000e+01   2.3000000e+02   1.5165751e+01
   3.7300000e+01   2.2000000e+02   1.4832397e+01
   3.7400000e+01   2.2800000e+02   1.5099669e+01
   3.7500000e+01   2.2700000e+02   1.5066519e+01
   3.7600000e+01   1.9900000e+02   1.4106736e+01
   3.7700000e+01   2.1300000e+02   1.4594520e+01
   3.7800000e+01   1.7800000e+02   1.3341664e+01
   3.7900000e+01   2.0900000e+02   1.4456832e+01
   3.8000000e+01   1.9000000e+02   1.3784049e+01
   3.8100000e+01   2.0000000e+02   1.4142136e+01
   3.8200000e+01   2.1500000e+02   1.4662878e+01
   3.8300000e+01   2.1500000e+02   1.4662878e+01
   3.8400000e+01   2.1800000e+02   1.4764823e+01
   3.8500000e+01   1.9200000e+02   1.3856406e+01
   3.8600000e+01   2.4200000e+02   1.5556349e+01
   3.8700000e+01   2.0700000e+02   1.4387495e+01
   3.8800000e+01   2.2000000e+02   1.4832397e+01
   3.8900000e+01   2.0100000e+02   1.4177447e+01
   3.9000000e+01   2.0400000e+02   1.4282857e+01
   3.9100000e+01   2.0000000e+02   1.4142136e+01
   3.9200000e+01   1.9500000e+02   1.3964240e+01
   3.9300000e+01   2.1700000e+02   1.4730920e+01
   3.9400000e+01   2.0100000e+02   1.4177447e+01
   3.9500000e+01   1.9300000e+02   1.3892444e+01
   3.9600000e+01   2.0000000e+02   1.4142136e+01
   3.9700000e+01   1.9700000e+02   1.4035669e+01
   3.9800000e+01   2.1000000e+02   1.4491377e+01
   3.9900000e+01   2.3400000e+02   1.5297059e+01
   4.0000000e+01   2.1500000e+02   1.4662878e+01
   4.0100000e+01   2.2400000e+02   1.4966630e+01
   4.0200000e+01   2.1700000e+02   1.4730920e+01
   4.0300000e+01   2.2600000e+02   1.5033296e+01
   4.0400000e+01   1.9400000e+02   1.3928388e+01
   4.0500000e+01   2.4100000e+02   1.5524175e+01
   4.0600000e+01   2.4400000e+02   1.5620499e+01
   4.0700000e+01   2.2300000e+02   1.4933185e+01
   4.0800000e+01   2.3800000e+02   1.5427249e+01
   4.0900000e+01   2.9400000e+02   1.7146428e+01
   4.1000000e+01   4.0500000e+02   2.0124612e+01
   4.1100000e+01   8.1700000e+02   2.8583212e+01
   4.1200000e+01   1.5890000e+03   3.9862263e+01
   4.1300000e+01   2.3040000e+03   4.8000000e+01
   4.1400000e+01   3.0390000e+03   5.5127126e+01
   4.1500000e+01   3.1580000e+03   5.6196085e+01
   4.1600000e+01   2.8620000e+03   5.3497664e+01
   4.1700000e+01   1.8820000e+03   4.3382024e+01
   4.1800000e+01   9.5000000e+02   3.0822070e+01
   4.1900000e+01   3.8200000e+02   1.9544820e+01
   4.2000000e+01   2.5800000e+02   1.6062378e+01
   4.2100000e+01   2.2400000e+02   1.4966630e+01
   4.2200000e+01   2.2900000e+02   1.5132746e+01
   4.2300000e+01   2.1700000e+02   1.4730920e+01
   4.2400000e+01   2.2000000e+02   1.4832397e+01
   4.2500000e+01   2.1300000e+02   1.4594520e+01
   4.2600000e+01   2.0000000e+02   1.4142136e+01
   4.2700000e+01   2.0100000e+02   1.4177447e+01
   4.2800000e+01   2.0300000e+02   1.4247807e+01
   4.2900000e+01   1.8800000e+02   1.3711309e+01
   4.3000000e+01   2.0600000e+02   1.4352700e+01
   4.3100000e+01   1.9700000e+02   1.4035669e+01
   4.3200000e+01   2.3400000e+02   1.5297059e+01
   4.3300000e+01   2.1000000e+02   1.4491377e+01
   4.3400000e+01   2.2000000e+02   1.4832397e+01
   4.3500000e+01   2.0600000e+02   1.4352700e+01
   4.3600000e+01   2.1200000e+02   1.4560220e+01
   4.3700000e+01   2.2800000e+02   1.5099669e+01
   4.3800000e+01   2.1000000e+02   1.4491377e+01
   4.3900000e+01   2.1200000e+02   1.4560220e+01
   4.4000000e+01   2.0300000e+02   1.4247807e+01
   4.4100000e+01   1.9600000e+02   1.4000000e+01
   4.4200000e+01   2.2700000e+02   1.5066519e+01
   4.4300000e+01   2.0900000e+02   1.4456832e+01
   4.4400000e+01   1.9200000e+02   1.3856406e+01
   4.4500000e+01   1.9200000e+02   1.3856406e+01
   4.4600000e+01   2.0300000e+02   1.4247807e+01
   4.4700000e+01   1.9300000e+02   1.3892444e+01
   4.4800000e+01   2.2100000e+02   1.4866069e+01
   4.4900000e+01   1.7600000e+02   1.3266499e+01
   4.5000000e+01   1.9300000e+02   1.3892444e+01
   4.5100000e+01   2.0700000e+02   1.4387495e+01
   4.5200000e+01   2.1300000e+02   1.4594520e+01
   4.5300000e+01   1.8100000e+02   1.3453624e+01
   4.5400000e+01   2.2900000e+02   1.5132746e+01
   4.5500000e+01   2.1900000e+02   1.4798649e+01
   4.5600000e+01   2.1600000e+02   1.4696938e+01
   4.5700000e+01   1.9300000e+02   1.3892444e+01
   4.5800000e+01   2.2400000e+02   1.4966630e+01
   4.5900000e+01   2.0600000e+02   1.4352700e+01
   4.6000000e+01   2.1200000e+02   1.4560220e+01
   4.6100000e+01   2.3100000e+02   1.5198684e+01
   4.6200000e+01   2.7000000e+02   1.6431677e+01
   4.6300000e+01   3.7200000e+02   1.9287302e+01
   4.6400000e+01   4.6400000e+02   2.1540659e+01
   4.6500000e+01   5.5200000e+02   2.3494680e+01
   4.6600000e+01   6.4100000e+02   2.5317978e+01
   4.6700000e+01   6.5100000e+02   2.5514702e+01
   4.6800000e+01   6.0600000e+02   2.4617067e+01
   4.6900000e+01   4.5500000e+02   2.1330729e+01
   4.7000000e+01   3.3000000e+02   1.8165902e+01
   4.7100000e+01   2.6100000e+02   1.6155494e+01
   4.7200000e+01   2.1300000e+02   1.4594520e+01
   4.7300000e+01   2.1400000e+02   1.4628739e+01
   4.7400000e+01   2.3000000e+02   1.5165751e+01
   4.7500000e+01   2.2900000e+02   1.5132746e+01
   4.7600000e+01   1.9700000e+02   1.4035669e+01
   4.7700000e+01   2.2100000e+02   1.4866069e+01
   4.7800000e+01   2.4000000e+02   1.5491933e+01
   4.7900000e+01   2.4600000e+02   1.5684387e+01
   4.8000000e+01   2.6400000e+02   1.6248077e+01
   4.8100000e+01   2.6800000e+02   1.6370706e+01
   4.8200000e+01   2.0300000e+02   1.4247807e+01
   4.8300000e+01   2.3700000e+02   1.5394804e+01
   4.8400000e+01   2.1800000e+02   1.4764823e+01
   4.8500000e+01   2.1100000e+02   1.4525839e+01
   4.8600000e+01   2.2500000e+02   1.5000000e+01
   4.8700000e+01   2.2200000e+02   1.4899664e+01
   4.8800000e+01   2.2600000e+02   1.5033296e+01
   4.8900000e+01   2.6300000e+02   1.6217275e+01
   4.9000000e+01   1.9500000e+02   1.3964240e+01
   4.9100000e+01   2.0800000e+02   1.4422205e+01
   4.9200000e+01   2.3400000e+02   1.5297059e+01
   4.9300000e+01   2.0900000e+02   1.4456832e+01
   4.9400000e+01   2.1400000e+02   1.4628739e+01
   4.9500000e+01   2.2100000e+02   1.4866069e+01
   4.9600000e+01   2.0800000e+02   1.4422205e+01
   4.9700000e+01   2.1400000e+02   1.4628739e+01
   4.9800000e+01   1.7900000e+02   1.3379088e+01
   4.9900000e+01   2.2900000e+02   1.5132746e+01
   5.0000000e+01   2.1000000e+02   1.4491377e+01
   5.0100000e+01   2.3700000e+02   1.5394804e+01
   5.0200000e+01   2.1300000e+02   1.4594520e+01
   5.0300000e+01   2.1500000e+02   1.4662878e+01
   5.0400000e+01   2.1700000e+02   1.4730920e+01
   5.0500000e+01   2.1900000e+02   1.4798649e+01
   5.0600000e+01   2.1900000e+02   1.4798649e+01
   5.0700000e+01   2.2300000e+02   1.4933185e+01
   5.0800000e+01   2.1700000e+02   1.4730920e+01
   5.0900000e+01   2.8000000e+02   1.6733201e+01
   5.1000000e+01   3.8000000e+02   1.9493589e+01
   5.1100000e+01   5.3700000e+02   2.3173260e+01
   5.1200000e+01   6.9600000e+02   2.6381812e+01
   5.1300000e+01   8.2500000e+02   2.8722813e+01
   5.1400000e+01   9.7400000e+02   3.1208973e+01
   5.1500000e+01   9.0500000e+02   3.0083218e+01
   5.1600000e+01   7.8400000e+02   2.8000000e+01
   5.1700000e+01   5.5000000e+02   2.3452079e+01
   5.1800000e+01   3.6600000e+02   1.9131126e+01
   5.1900000e+01   2.4800000e+02   1.5748016e+01
   5.2000000e+01   2.0400000e+02   1.4282857e+01
   5.2100000e+01   2.2300000e+02   1.4933185e+01
   5.2200000e+01   2.2800000e+02   1.5099669e+01
   5.2300000e+01   2.0700000e+02   1.4387495e+01
   5.2400000e+01   2.0100000e+02   1.4177447e+01
   5.2500000e+01   2.3200000e+02   1.5231546e+01
   5.2600000e+01   2.2200000e+02   1.4899664e+01
   5.2700000e+01   2.2100000e+02   1.4866069e+01
   5.2800000e+01   2.1000000e+02   1.4491377e+01
   5.2900000e+01   2.0500000e+02   1.4317821e+01
   5.3000000e+01   2.2900000e+02   1.5132746e+01
   5.3100000e+01   2.0100000e+02   1.4177447e+01
   5.3200000e+01   1.9300000e+02   1.3892444e+01
   5.3300000e+01   2.2900000e+02   1.5132746e+01
   5.3400000e+01   1.9900000e+02   1.4106736e+01
   5.3500000e+01   2.1600000e+02   1.4696938e+01
   5.3600000e+01   2.0100000e+02   1.4177447e+01
   5.3700000e+01   2.0900000e+02   1.4456832e+01
   5.3800000e+01   2.1100000e+02   1.4525839e+01
   5.3900000e+01   2.2900000e+02   1.5132746e+01
   5.4000000e+01   1.9800000e+02   1.4071247e+01
   5.4100000e+01   2.0100000e+02   1.4177447e+01
   5.4200000e+01   2.2600000e+02   1.5033296e+01
   5.4300000e+01   2.1500000e+02   1.4662878e+01
   5.4400000e+01   2.4700000e+02   1.5716234e+01
   5.4500000e+01   2.3100000e+02   1.5198684e+01
   5.4600000e+01   1.9000000e+02   1.3784049e+01
   5.4700000e+01   2.3100000e+02   1.5198684e+01
   5.4800000e+01   2.1500000e+02   1.4662878e+01
   5.4900000e+01   2.1800000e+02   1.4764823e+01
   5.5000000e+01   2.0600000e+02   1.4352700e+01
   5.5100000e+01   2.2000000e+02   1.4832397e+01
   5.5200000e+01   2.5100000e+02   1.5842980e+01
   5.5300000e+01   3.3400000e+02   1.8275667e+01
   5.5400000e+01   4.3300000e+02   2.0808652e+01
   5.5500000e+01   6.4700000e+02   2.5436195e+01
   5.5600000e+01   8.6100000e+02   2.9342802e+01
   5.5700000e+01   1.0870000e+03   3.2969683e+01
   5.5800000e+01   1.2410000e+03   3.5227830e+01
   5.5900000e+01   1.2930000e+03   3.5958309e+01
   5.6000000e+01   1.3240000e+03   3.6386811e+01
   5.6100000e+01   1.0600000e+03   3.2557641e+01
   5.6200000e+01   6.7800000e+02   2.6038433e+01
   5.6300000e+01   4.5000000e+02   2.1213203e+01
   5.6400000e+01   2.8200000e+02   1.6792856e+01
   5.6500000e+01   2.3800000e+02   1.5427249e+01
   5.6600000e+01   2.0500000e+02   1.4317821e+01
   5.6700000e+01   2.1600000e+02   1.4696938e+01
   5.6800000e+01   2.0800000e+02   1.4422205e+01
   5.6900000e+01   2.3000000e+02   1.5165751e+01
   5.7000000e+01   2.1900000e+02   1.4798649e+01
   5.7100000e+01   2.1900000e+02   1.4798649e+01
   5.7200000e+01   2.2400000e+02   1.4966630e+01
   5.7300000e+01   2.3500000e+02   1.5329710e+01
   5.7400000e+01   2.3600000e+02   1.5362291e+01
   5.7500000e+01   1.9800000e+02   1.4071247e+01
   5.7600000e+01   2.1700000e+02   1.4730920e+01
   5.7700000e+01   2.2900000e+02   1.5132746e+01
   5.7800000e+01   2.2300000e+02   1.4933185e+01
   5.7900000e+01   2.0100000e+02   1.4177447e+01
   5.8000000e+01   2.3400000e+02   1.5297059e+01
   5.8100000e+01   2.1000000e+02   1.4491377e+01
   5.8200000e+01   2.1800000e+02   1.4764823e+01
   5.8300000e+01   2.1200000e+02   1.4560220e+01
   5.8400000e+01   1.9600000e+02   1.4000000e+01
   5.8500000e+01   2.1700000e+02   1.4730920e+01
   5.8600000e+01   2.2600000e+02   1.5033296e+01
   5.8700000e+01   1.9600000e+02   1.4000000e+01
   5.8800000e+01   2.1400000e+02   1.4628739e+01
   5.8900000e+01   2.3300000e+02   1.5264338e+01
   5.9000000e+01   2.3600000e+02   1.5362291e+01
   5.9100000e+01   2.2800000e+02   1.5099669e+01
   5.9200000e+01   2.1400000e+02   1.4628739e+01
   5.9300000e+01   2.3400000e+02   1.5297059e+01
   5.9400000e+01   2.3600000e+02   1.5362291e+01
   5.9500000e+01   3.2300000e+02   1.7972201e+01
   5.9600000e+01   3.8200000e+02   1.9544820e+01
   5.9700000e+01   5.3900000e+02   2.3216374e+01
   5.9800000e+01   7.1800000e+02   2.6795522e+01
   5.9900000e+01   8.9200000e+02   2.9866369e+01
   6.0000000e+01   9.9600000e+02   3.1559468e+01
   6.0100000e+01   1.0540000e+03   3.2465366e+01
   6.0200000e+01   1.0480000e+03   3.2372828e+01
   6.0300000e+01   1.0400000e+03   3.2249031e+01
   6.0400000e+01   7.8000000e+02   2.7928480e+01
   6.0500000e+01   5.5000000e+02   2.3452079e+01
   6.0600000e+01   3.4300000e+02   1.8520259e+01
   6.0700000e+01   2.5800000e+02   1.6062378e+01
   6.0800000e+01   2.0600000e+02   1.4352700e+01
   6.0900000e+01   2.2600000e+02   1.5033296e+01
   6.1000000e+01   2.4300000e+02   1.5588457e+01
   6.1100000e+01   2.3600000e+02   1.5362291e+01
   6.1200000e+01   2.6100000e+02   1.6155494e+01
   6.1300000e+01   2.3300000e+02   1.5264338e+01
   6.1400000e+01   2.1800000e+02   1.4764823e+01
   6.1500000e+01   2.1700000e+02   1.4730920e+01
   6.1600000e+01   2.2400000e+02   1.4966630e+01
   6.1700000e+01   2.3700000e+02   1.5394804e+01
   6.1800000e+01   2.3100000e+02   1.5198684e+01
   6.1900000e+01   2.1200000e+02   1.4560220e+01
   6.2000000e+01   2.1500000e+02   1.4662878e+01
   6.2100000e+01   2.2600000e+02   1.5033296e+01
   6.2200000e+01   2.1600000e+02   1.4696938e+01
   6.2300000e+01   2.1400000e+02   1.4628739e+01
   6.2400000e+01   2.0500000e+02   1.4317821e+01
   6.2500000e+01   2.1600000e+02   1.4696938e+01
   6.2600000e+01   2.1100000e+02   1.4525839e+01
   6.2700000e+01   2.5200000e+02   1.5874508e+01
   6.2800000e+01   2.4600000e+02   1.5684387e+01
   6.2900000e+01   2.3400000e+02   1.5297059e+01
   6.3000000e+01   2.5700000e+02   1.6031220e+01
   6.3100000e+01   2.4600000e+02   1.5684387e+01
   6.3200000e+01   2.3900000e+02   1.5459625e+01
   6.3300000e+01   2.3400000e+02   1.5297059e+01
   6.3400000e+01   2.8900000e+02   1.7000000e+01
   6.3500000e+01   3.9800000e+02   1.9949937e+01
   6.3600000e+01   5.4300000e+02   2.3302360e+01
   6.3700000e+01   8.5600000e+02   2.9257478e+01
   6.3800000e+01   1.0430000e+03   3.2295511e+01
   6.3900000e+01   1.3760000e+03   3.7094474e+01
   6.4000000e+01   1.6920000e+03   4.1133928e+01
   6.4100000e+01   1.8490000e+03   4.3000000e+01
   6.4200000e+01   2.0050000e+03   4.4777226e+01
   6.4300000e+01   1.9920000e+03   4.4631827e+01
   6.4400000e+01   1.8760000e+03   4.3312816e+01
   6.4500000e+01   1.4370000e+03   3.7907783e+01
   6.4600000e+01   9.7100000e+02   3.1160873e+01
   6.4700000e+01   5.0400000e+02   2.2449944e+01
   6.4800000e+01   3.6000000e+02   1.8973666e+01
   6.4900000e+01   2.5000000e+02   1.5811388e+01
   6.5000000e+01   2.2400000e+02   1.4966630e+01
   6.5100000e+01   2.3000000e+02   1.5165751e+01
   6.5200000e+01   2.3300000e+02   1.5264338e+01
   6.5300000e+01   2.6100000e+02   1.6155494e+01
   6.5400000e+01   2.2700000e+02   1.5066519e+01
   6.5500000e+01   2.3900000e+02   1.5459625e+01
   6.5600000e+01   2.3500000e+02   1.5329710e+01
   6.5700000e+01   2.5800000e+02   1.6062378e+01
   6.5800000e+01   2.6800000e+02   1.6370706e+01
   6.5900000e+01   2.4500000e+02   1.5652476e+01
   6.6000000e+01   2.5100000e+02   1.5842980e+01
   6.6100000e+01   2.2300000e+02   1.4933185e+01
   6.6200000e+01   2.5200000e+02   1.5874508e+01
   6.6300000e+01   2.4500000e+02   1.5652476e+01
   6.6400000e+01   2.5600000e+02   1.6000000e+01
   6.6500000e+01   2.5600000e+02   1.6000000e+01
   6.6600000e+01   2.5500000e+02   1.5968719e+01
   6.6700000e+01   2.4900000e+02   1.5779734e+01
   6.6800000e+01   2.7900000e+02   1.6703293e+01
   6.6900000e+01   2.5200000e+02   1.5874508e+01
   6.7000000e+01   2.4900000e+02   1.5779734e+01
   6.7100000e+01   2.7900000e+02   1.6703293e+01
   6.7200000e+01   2.7900000e+02   1.6703293e+01
   6.7300000e+01   3.3200000e+02   1.8220867e+01
   6.7400000e+01   4.6800000e+02   2.1633308e+01
   6.7500000e+01   7.4000000e+02   2.7202941e+01
   6.7600000e+01   1.0300000e+03   3.2093613e+01
   6.7700000e+01   1.4380000e+03   3.7920970e+01
   6.7800000e+01   1.8210000e+03   4.2673177e+01
   6.7900000e+01   2.0840000e+03   4.5650849e+01
   6.8000000e+01   2.4110000e+03   4.9101935e+01
   6.8100000e+01   2.6260000e+03   5.1244512e+01
   6.8200000e+01   2.7120000e+03   5.2076866e+01
   6.8300000e+01   2.5320000e+03   5.0318983e+01
   6.8400000e+01   2.2100000e+03   4.7010637e+01
   6.8500000e+01   1.4610000e+03   3.8223030e+01
   6.8600000e+01   8.6100000e+02   2.9342802e+01
   6.8700000e+01   5.3200000e+02   2.3065125e+01
   6.8800000e+01   3.6900000e+02   1.9209373e+01
   6.8900000e+01   2.7300000e+02   1.6522712e+01
   6.9000000e+01   2.6400000e+02   1.6248077e+01
   6.9100000e+01   2.6000000e+02   1.6124515e+01
   6.9200000e+01   2.6200000e+02   1.6186414e+01
   6.9300000e+01   2.6700000e+02   1.6340135e+01
   6.9400000e+01   2.6900000e+02   1.6401219e+01
   6.9500000e+01   2.6300000e+02   1.6217275e+01
   6.9600000e+01   2.6000000e+02   1.6124515e+01
   6.9700000e+01   2.6800000e+02   1.6370706e+01
   6.9800000e+01   2.7400000e+02   1.6552945e+01
   6.9900000e+01   2.5400000e+02   1.5937377e+01
   7.0000000e+01   2.4800000e+02   1.5748016e+01
   7.0100000e+01   2.5900000e+02   1.6093477e+01
   7.0200000e+01   2.5800000e+02   1.6062378e+01
   7.0300000e+01   2.6800000e+02   1.6370706e+01
   7.0400000e+01   2.4000000e+02   1.5491933e+01
   7.0500000e+01   2.5900000e+02   1.6093477e+01
   7.0600000e+01   2.9700000e+02   1.7233688e+01
   7.0700000e+01   2.7100000e+02   1.6462078e+01
   7.0800000e+01   3.0300000e+02   1.7406895e+01
   7.0900000e+01   3.1100000e+02   1.7635192e+01
   7.1000000e+01   4.0100000e+02   2.0024984e+01
   7.1100000e+01   5.8000000e+02   2.4083189e+01
   7.1200000e+01   8.7000000e+02   2.9495762e+01
   7.1300000e+01   1.5540000e+03   3.9420807e+01
   7.1400000e+01   2.1650000e+03   4.6529560e+01
   7.1500000e+01   2.9090000e+03   5.3935146e+01
   7.1600000e+01   3.9710000e+03   6.3015871e+01
   7.1700000e+01   4.4910000e+03   6.7014924e+01
   7.1800000e+01   5.0680000e+03   7.1189887e+01
   7.1900000e+01   5.5410000e+03   7.4437894e+01
   7.2000000e+01   5.9870000e+03   7.7375707e+01
   7.2100000e+01   5.7810000e+03   7.6032888e+01
   7.2200000e+01   5.3060000e+03   7.2842295e+01
   7.2300000e+01   3.8290000e+03   6.1878914e+01
   7.2400000e+01   2.4130000e+03   4.9122296e+01
   7.2500000e+01   1.3390000e+03   3.6592349e+01
   7.2600000e+01   7.4700000e+02   2.7331301e+01
   7.2700000e+01   4.1300000e+02   2.0322401e+01
   7.2800000e+01   3.4700000e+02   1.8627936e+01
   7.2900000e+01   2.9200000e+02   1.7088007e+01
   7.3000000e+01   2.8300000e+02   1.6822604e+01
   7.3100000e+01   2.9200000e+02   1.7088007e+01
   7.3200000e+01   2.7900000e+02   1.6703293e+01
   7.3300000e+01   2.9700000e+02   1.7233688e+01
   7.3400000e+01   2.8300000e+02   1.6822604e+01
   7.3500000e+01   2.7100000e+02   1.6462078e+01
   7.3600000e+01   3.0300000e+02   1.7406895e+01
   7.3700000e+01   2.7700000e+02   1.6643317e+01
   7.3800000e+01   2.6600000e+02   1.6309506e+01
   7.3900000e+01   3.0800000e+02   1.7549929e+01
   7.4000000e+01   2.5900000e+02   1.6093477e+01
   7.4100000e+01   2.8200000e+02   1.6792856e+01
   7.4200000e+01   2.7500000e+02   1.6583124e+01
   7.4300000e+01   2.5700000e+02   1.6031220e+01
   7.4400000e+01   2.4000000e+02   1.5491933e+01
   7.4500000e+01   2.8100000e+02   1.6763055e+01
   7.4600000e+01   2.3300000e+02   1.5264338e+01
   7.4700000e+01   2.5600000e+02   1.6000000e+01
   7.4800000e+01   2.5000000e+02   1.5811388e+01
   7.4900000e+01   2.5700000e+02   1.6031220e+01
   7.5000000e+01   2.7900000e+02   1.6703293e+01
   7.5100000e+01   2.8000000e+02   1.6733201e+01
   7.5200000e+01   2.9400000e+02   1.7146428e+01
   7.5300000e+01   3.4400000e+02   1.8547237e+01
   7.5400000e+01   3.4500000e+02   1.8574176e+01
   7.5500000e+01   3.4100000e+02   1.8466185e+01
   7.5600000e+01   3.4000000e+02   1.8439089e+01
   7.5700000e+01   3.7700000e+02   1.9416488e+01
   7.5800000e+01   3.1900000e+02   1.7860571e+01
   7.5900000e+01   3.4700000e+02   1.8627936e+01
   7.6000000e+01   3.1400000e+02   1.7720045e+01
   7.6100000e+01   3.2900000e+02   1.8138357e+01
   7.6200000e+01   2.8900000e+02   1.7000000e+01
   7.6300000e+01   2.5600000e+02   1.6000000e+01
   7.6400000e+01   2.7700000e+02   1.6643317e+01
   7.6500000e+01   2.5100000e+02   1.5842980e+01
   7.6600000e+01   2.4000000e+02   1.5491933e+01
   7.6700000e+01   2.4500000e+02   1.5652476e+01
   7.6800000e+01   2.4600000e+02   1.5684387e+01
   7.6900000e+01   2.5200000e+02   1.5874508e+01
   7.7000000e+01   2.6100000e+02   1.6155494e+01
   7.7100000e+01   2.5400000e+02   1.5937377e+01
   7.7200000e+01   2.5100000e+02   1.5842980e+01
   7.7300000e+01   2.6200000e+02   1.6186414e+01
   7.7400000e+01   2.6200000e+02   1.6186414e+01
   7.7500000e+01   2.3100000e+02   1.5198684e+01
   7.7600000e+01   2.6600000e+02   1.6309506e+01
   7.7700000e+01   2.5600000e+02   1.6000000e+01
   7.7800000e+01   2.1700000e+02   1.4730920e+01
   7.7900000e+01   2.7300000e+02   1.6522712e+01
   7.8000000e+01   2.5100000e+02   1.5842980e+01
   7.8100000e+01   2.9000000e+02   1.7029386e+01
   7.8200000e+01   3.1200000e+02   1.7663522e+01
   7.8300000e+01   3.6400000e+02   1.9078784e+01
   7.8400000e+01   4.6700000e+02   2.1610183e+01
   7.8500000e+01   6.5900000e+02   2.5670995e+01
   7.8600000e+01   1.0340000e+03   3.2155870e+01
   7.8700000e+01   1.5110000e+03   3.8871583e+01
   7.8800000e+01   2.0920000e+03   4.5738387e+01
   7.8900000e+01   2.6340000e+03   5.1322510e+01
   7.9000000e+01   3.1400000e+03   5.6035703e+01
   7.9100000e+01   3.6900000e+03   6.0745370e+01
   7.9200000e+01   3.8960000e+03   6.2417946e+01
   7.9300000e+01   4.3290000e+03   6.5795137e+01
   7.9400000e+01   4.5880000e+03   6.7734777e+01
   7.9500000e+01   4.6410000e+03   6.8124885e+01
   7.9600000e+01   4.5410000e+03   6.7386942e+01
   7.9700000e+01   3.8470000e+03   6.2024189e+01
   7.9800000e+01   2.9840000e+03   5.4626001e+01
   7.9900000e+01   1.9340000e+03   4.3977267e+01
   8.0000000e+01   1.1870000e+03   3.4452866e+01
   8.0100000e+01   7.0400000e+02   2.6532998e+01
   8.0200000e+01   4.4100000e+02   2.1000000e+01
   8.0300000e+01   3.2400000e+02   1.8000000e+01
   8.0400000e+01   2.9200000e+02   1.7088007e+01
   8.0500000e+01   2.6200000e+02   1.6186414e+01
   8.0600000e+01   3.0000000e+02   1.7320508e+01
   8.0700000e+01   2.6800000e+02   1.6370706e+01
   8.0800000e+01   2.5100000e+02   1.5842980e+01
   8.0900000e+01   2.5100000e+02   1.5842980e+01
   8.1000000e+01   2.6300000e+02   1.6217275e+01
   8.1100000e+01   2.6000000e+02   1.6124515e+01
   8.1200000e+01   2.5300000e+02   1.5905974e+01
   8.1300000e+01   2.4900000e+02   1.5779734e+01
   8.1400000e+01   2.4100000e+02   1.5524175e+01
   8.1500000e+01   2.5400000e+02   1.5937377e+01
   8.1600000e+01   2.6100000e+02   1.6155494e+01
   8.1700000e+01   2.5100000e+02   1.5842980e+01
   8.1800000e+01   2.6200000e+02   1.6186414e+01
   8.1900000e+01   2.6100000e+02   1.6155494e+01
   8.2000000e+01   2.7500000e+02   1.6583124e+01
   8.2100000e+01   2.2500000e+02   1.5000000e+01
   8.2200000e+01   2.7100000e+02   1.6462078e+01
   8.2300000e+01   2.5900000e+02   1.6093477e+01
   8.2400000e+01   2.7700000e+02   1.6643317e+01
   8.2500000e+01   2.7100000e+02   1.6462078e+01
   8.2600000e+01   3.0000000e+02   1.7320508e+01
   8.2700000e+01   3.5600000e+02   1.8867962e+01
   8.2800000e+01   3.2000000e+02   1.7888544e+01
   8.2900000e+01   3.5600000e+02   1.8867962e+01
   8.3000000e+01   3.6100000e+02   1.9000000e+01
   8.3100000e+01   3.7300000e+02   1.9313208e+01
   8.3200000e+01   3.8600000e+02   1.9646883e+01
   8.3300000e+01   4.1700000e+02   2.0420578e+01
   8.3400000e+01   3.8000000e+02   1.9493589e+01
   8.3500000e+01   3.9500000e+02   1.9874607e+01
   8.3600000e+01   3.7100000e+02   1.9261360e+01
   8.3700000e+01   3.2800000e+02   1.8110770e+01
   8.3800000e+01   3.2200000e+02   1.7944358e+01
   8.3900000e+01   2.9100000e+02   1.7058722e+01
   8.4000000e+01   2.9200000e+02   1.7088007e+01
   8.4100000e+01   2.8700000e+02   1.6941074e+01
   8.4200000e+01   2.6600000e+02   1.6309506e+01
   8.4300000e+01   2.5000000e+02   1.5811388e+01
   8.4400000e+01   2.4600000e+02   1.5684387e+01
   8.4500000e+01   2.5500000e+02   1.5968719e+01
   8.4600000e+01   2.5100000e+02   1.5842980e+01
   8.4700000e+01   2.5600000e+02   1.6000000e+01
   8.4800000e+01   2.6700000e+02   1.6340135e+01
   8.4900000e+01   2.3600000e+02   1.5362291e+01
   8.5000000e+01   2.3600000e+02   1.5362291e+01
   8.5100000e+01   2.9200000e+02   1.7088007e+01
   8.5200000e+01   3.0100000e+02   1.7349352e+01
   8.5300000e+01   3.0400000e+02   1.7435596e+01
   8.5400000e+01   3.1300000e+02   1.7691806e+01
   8.5500000e+01   4.1700000e+02   2.0420578e+01
   8.5600000e+01   5.5300000e+02   2.3515952e+01
   8.5700000e+01   7.5100000e+02   2.7404379e+01
   8.5800000e+01   1.1160000e+03   3.3406586e+01
   8.5900000e+01   1.4600000e+03   3.8209946e+01
   8.6000000e+01   1.8510000e+03   4.3023250e+01
   8.6100000e+01   2.2760000e+03   4.7707442e+01
   8.6200000e+01   2.5530000e+03   5.0527220e+01
   8.6300000e+01   3.0220000e+03   5.4972721e+01
   8.6400000e+01   3.2630000e+03   5.7122675e+01
   8.6500000e+01   3.5140000e+03   5.9279001e+01
   8.6600000e+01   3.6230000e+03   6.0191362e+01
   8.6700000e+01   3.7730000e+03   6.1424751e+01
   8.6800000e+01   3.9210000e+03   6.2617889e+01
   8.6900000e+01   3.6210000e+03   6.0174746e+01
   8.7000000e+01   3.2520000e+03   5.7026310e+01
   8.7100000e+01   2.4160000e+03   4.9152823e+01
   8.7200000e+01   1.8590000e+03   4.3116122e+01
   8.7300000e+01   1.2300000e+03   3.5071356e+01
   8.7400000e+01   7.7000000e+02   2.7748874e+01
   8.7500000e+01   5.4900000e+02   2.3430749e+01
   8.7600000e+01   4.0600000e+02   2.0149442e+01
   8.7700000e+01   3.3200000e+02   1.8220867e+01
   8.7800000e+01   3.0300000e+02   1.7406895e+01
   8.7900000e+01   2.9500000e+02   1.7175564e+01
   8.8000000e+01   2.7700000e+02   1.6643317e+01
   8.8100000e+01   2.8200000e+02   1.6792856e+01
   8.8200000e+01   2.8300000e+02   1.6822604e+01
   8.8300000e+01   2.6800000e+02   1.6370706e+01
   8.8400000e+01   2.8500000e+02   1.6881943e+01
   8.8500000e+01   2.5700000e+02   1.6031220e+01
   8.8600000e+01   3.2200000e+02   1.7944358e+01
   8.8700000e+01   2.8100000e+02   1.6763055e+01
   8.8800000e+01   2.8000000e+02   1.6733201e+01
   8.8900000e+01   3.1800000e+02   1.7832555e+01
   8.9000000e+01   3.6600000e+02   1.9131126e+01
   8.9100000e+01   4.7400000e+02   2.1771541e+01
   8.9200000e+01   5.5100000e+02   2.3473389e+01
   8.9300000e+01   7.8900000e+02   2.8089144e+01
   8.9400000e+01   1.0180000e+03   3.1906112e+01
   8.9500000e+01   1.2980000e+03   3.6027767e+01
   8.9600000e+01   1.5290000e+03   3.9102430e+01
   8.9700000e+01   1.7420000e+03   4.1737274e+01
   8.9800000e+01   2.0090000e+03   4.4821870e+01
   8.9900000e+01   2.2540000e+03   4.7476310e+01
   9.0000000e+01   2.3990000e+03   4.8979588e+01
   9.0100000e+01   2.6700000e+03   5.1672043e+01
   9.0200000e+01   2.7240000e+03   5.2191953e+01
   9.0300000e+01   2.6900000e+03   5.1865210e+01
   9.0400000e+01   2.7960000e+03   5.2877216e+01
   9.0500000e+01   2.6370000e+03   5.1351728e+01
   9.0600000e+01   2.3430000e+03   4.8404545e+01
   9.0700000e+01   1.9600000e+03   4.4271887e+01
   9.0800000e+01   1.5060000e+03   3.8807216e+01
   9.0900000e+01   1.0940000e+03   3.3075671e+01
   9.1000000e+01   7.4400000e+02   2.7276363e+01
   9.1100000e+01   5.0800000e+02   2.2538855e+01
   9.1200000e+01   4.0900000e+02   2.0223748e+01
   9.1300000e+01   3.3300000e+02   1.8248288e+01
   9.1400000e+01   3.0500000e+02   1.7464249e+01
   9.1500000e+01   2.7000000e+02   1.6431677e+01
   9.1600000e+01   2.7600000e+02   1.6613248e+01
   9.1700000e+01   2.7800000e+02   1.6673332e+01
   9.1800000e+01   2.9400000e+02   1.7146428e+01
   9.1900000e+01   2.4500000e+02   1.5652476e+01
   9.2000000e+01   2.4400000e+02   1.5620499e+01
   9.2100000e+01   2.7800000e+02   1.6673332e+01
   9.2200000e+01   2.5800000e+02   1.6062378e+01
   9.2300000e+01   2.4900000e+02   1.5779734e+01
   9.2400000e+01   2.8000000e+02   1.6733201e+01
   9.2500000e+01   2.5400000e+02   1.5937377e+01
   9.2600000e+01   2.6100000e+02   1.6155494e+01
   9.2700000e+01   3.0400000e+02   1.7435596e+01
   9.2800000e+01   3.1400000e+02   1.7720045e+01
   9.2900000e+01   3.6200000e+02   1.9026298e+01
   9.3000000e+01   3.8400000e+02   1.9595918e+01
   9.3100000e+01   4.0200000e+02   2.0049938e+01
   9.3200000e+01   4.2200000e+02   2.0542639e+01
   9.3300000e+01   4.7000000e+02   2.1679483e+01
   9.3400000e+01   5.2300000e+02   2.2869193e+01
   9.3500000e+01   5.1800000e+02   2.2759613e+01
   9.3600000e+01   5.7200000e+02   2.3916521e+01
   9.3700000e+01   5.3200000e+02   2.3065125e+01
   9.3800000e+01   5.5700000e+02   2.3600847e+01
   9.3900000e+01   6.0800000e+02   2.4657656e+01
   9.4000000e+01   5.9700000e+02   2.4433583e+01
   9.4100000e+01   6.0100000e+02   2.4515301e+01
   9.4200000e+01   5.3900000e+02   2.3216374e+01
   9.4300000e+01   5.1800000e+02   2.2759613e+01
   9.4400000e+01   4.6400000e+02   2.1540659e+01
   9.4500000e+01   3.7800000e+02   1.9442222e+01
   9.4600000e+01   3.3100000e+02   1.8193405e+01
   9.4700000e+01   3.0400000e+02   1.7435596e+01
   9.4800000e+01   2.7300000e+02   1.6522712e+01
   9.4900000e+01   2.4600000e+02   1.5684387e+01
   9.5000000e+01   2.7000000e+02   1.6431677e+01
   9.5100000e+01   2.3200000e+02   1.5231546e+01
   9.5200000e+01   2.5400000e+02   1.5937377e+01
   9.5300000e+01   2.5200000e+02   1.5874508e+01
   9.5400000e+01   2.3900000e+02   1.5459625e+01
   9.5500000e+01   2.8700000e+02   1.6941074e+01
   9.5600000e+01   2.5300000e+02   1.5905974e+01
   9.5700000e+01   2.7700000e+02   1.6643317e+01
   9.5800000e+01   2.4300000e+02   1.5588457e+01
   9.5900000e+01   2.6700000e+02   1.6340135e+01
   9.6000000e+01   2.6900000e+02   1.6401219e+01
   9.6100000e+01   2.7400000e+02   1.6552945e+01
   9.6200000e+01   3.2600000e+02   1.8055470e+01
   9.6300000e+01   3.8300000e+02   1.9570386e+01
   9.6400000e+01   3.8600000e+02   1.9646883e+01
   9.6500000e+01   4.3600000e+02   2.0880613e+01
   9.6600000e+01   5.1500000e+02   2.2693611e+01
   9.6700000e+01   5.7800000e+02   2.4041631e+01
   9.6800000e+01   5.9200000e+02   2.4331050e+01
   9.6900000e+01   7.2900000e+02   2.7000000e+01
   9.7000000e+01   7.4400000e+02   2.7276363e+01
   9.7100000e+01   8.0400000e+02   2.8354894e+01
   9.7200000e+01   8.8100000e+02   2.9681644e+01
   9.7300000e+01   8.9700000e+02   2.9949958e+01
   9.7400000e+01   9.3000000e+02   3.0495901e+01
   9.7500000e+01   1.0100000e+03   3.1780497e+01
   9.7600000e+01   9.9800000e+02   3.1591138e+01
   9.7700000e+01   9.9300000e+02   3.1511903e+01
   9.7800000e+01   9.0300000e+02   3.0049958e+01
   9.7900000e+01   8.2200000e+02   2.8670542e+01
   9.8000000e+01   6.9700000e+02   2.6400758e+01
   9.8100000e+01   5.8600000e+02   2.4207437e+01
   9.8200000e+01   4.5700000e+02   2.1377558e+01
   9.8300000e+01   4.0800000e+02   2.0199010e+01
   9.8400000e+01   3.8400000e+02   1.9595918e+01
   9.8500000e+01   3.2300000e+02   1.7972201e+01
   9.8600000e+01   2.6900000e+02   1.6401219e+01
   9.8700000e+01   2.6200000e+02   1.6186414e+01
   9.8800000e+01   2.3800000e+02   1.5427249e+01
   9.8900000e+01   2.7200000e+02   1.6492423e+01
   9.9000000e+01   2.4500000e+02   1.5652476e+01
   9.9100000e+01   2.5900000e+02   1.6093477e+01
   9.9200000e+01   2.7000000e+02   1.6431677e+01
   9.9300000e+01   2.4500000e+02   1.5652476e+01
   9.9400000e+01   2.5700000e+02   1.6031220e+01
   9.9500000e+01   3.0300000e+02   1.7406895e+01
   9.9600000e+01   3.1000000e+02   1.7606817e+01
   9.9700000e+01   4.2000000e+02   2.0493902e+01
   9.9800000e+01   5.5900000e+02   2.3643181e+01
   9.9900000e+01   6.9100000e+02   2.6286879e+01
